TABLE 7.6.1 Irish Sea herring VIIa(N). CATCH IN NUMBER

Units  :  Thousands 
   year
age  1961  1962 1963  1964  1965  1966  1967  1968  1969  1970  1971  1972
  1  4541   381 4837  1508   846   940  4440  1020  1321  5605 12168 40640
  2 11471 12296 9441 18095 27077 15048 40922 30181 42799 31177 66921 46660
  3  2629  7340 2341  4346  8180 15635  5598 13459 16908 33630 31940 26950
  4 12427  1811 2887   710   987  1999  4633  4079 12681 16465 29405 13180
  5   239  5433 2263   532   705   118  1351   816  1321 12611  5070 13750
  6   478   191 2263   710   987   353     0   612  2642  1752  3549  6760
  7  1195   191  546     0   423   118     0     0   528  2102  1014  2660
  8  2151   667  624   177   705     0     0     0     0  1051  1014  1670
   year
age  1973   1974  1975  1976  1977  1978  1979  1980  1981  1982  1983 1984
  1 42150  43250 33330 34740 30280 15540 11770  5840  5050  5100  1305 1168
  2 32740 109550 48240 56160 39040 36950 38270 25760 15790 16030 12162 8424
  3 38240  39750 39410 20780 22690 13410 23490 19510  3200  5670  5598 7237
  4 11490  24510 10840 15220  6750  6780  4250  8520  2790  2150  2820 3841
  5  6920  10650  7870  4580  4520  1740  2200  1980  2300   330   445 2221
  6  5070   4990  4210  2810  1460  1340  1050   910   330  1110   484  380
  7  2590   5150  2090  2420   910   670   400   360   290   140   255  229
  8  2600   1630  1640  1270  1120   350   290   230   240   380    59  479
   year
age  1985  1986  1987  1988  1989  1990 1991  1992  1993  1994  1995  1996
  1  2429  4491  2225  2607  1156  2313 1999 12145   646  1970  3204  5335
  2 10050 15266 12981 21250  6385 12835 9754  6885 14636  7002 21330 17529
  3 17336  7462  6146 13343 12039  5726 6743  6744  3008 12165  3391  9761
  4 13287  8550  2998  7159  4708  9697 2833  6690  3017  1826  5269  1160
  5  7206  4528  4180  4610  1876  3598 5068  3256  2903  2566  1199  3603
  6  2651  3198  2777  5084  1255  1661 1493  5122  1606  2104  1154   780
  7   667  1464  2328  3232  1559  1042  719  1036  2181  1278   926   961
  8   724   877  1671  4213  1956  1615  815   392   848  1991  1452  1364
   year
age  1997  1998  1999 2000  2001 2002 2003 2004  2005  2006  2007  2008  2009
  1  9551  3069  1810 1221  2713  179  694 3225  8692  5669 20290  8939  3905
  2 21387 11879 16929 3743 11473 9021 4694 8833 13980 15253 18291 18974 41005
  3  7562  3875  5936 5873  7151 1894 3345 5405 10555  8198  4980  7487 22704
  4  7341  4450  1566 2065 13050 1866 2559 2161  3287  6318  1655  2696  9251
  5  1641  6674  1477  558  3386 2395  882  623  1422  1325  1062  2082  3278
  6  2281  1030  1989  347   936  953 2945  213   415   605   325  1761  1496
  7   840  2049   444  251   650  474  872  673   292   262   122   328   892
  8  1432   451   622  147   803  337  605  127   368   246   111   216   215
   year
age  2010
  1  9588
  2 17627
  3  6679
  4  6201
  5  3200
  6   925
  7   370
  8   185


TABLE 7.6.2 Irish Sea herring VIIa(N). WEIGHTS AT AGE IN THE CATCH

Units  :  Kg 
   year
age  1961  1962  1963  1964  1965  1966  1967  1968  1969  1970  1971  1972
  1 0.082 0.067 0.067 0.078 0.065 0.092 0.093 0.091 0.074 0.101 0.108 0.074
  2 0.123 0.125 0.131 0.129 0.132 0.140 0.149 0.153 0.152 0.162 0.158 0.155
  3 0.178 0.152 0.184 0.156 0.176 0.185 0.180 0.196 0.204 0.206 0.189 0.195
  4 0.198 0.177 0.208 0.171 0.192 0.218 0.199 0.231 0.231 0.225 0.214 0.219
  5 0.232 0.199 0.228 0.226 0.210 0.258 0.223 0.246 0.254 0.245 0.225 0.232
  6 0.226 0.214 0.234 0.240 0.230 0.253 0.243 0.269 0.266 0.251 0.266 0.251
  7 0.253 0.275 0.266 0.000 0.272 0.225 0.227 0.234 0.239 0.269 0.241 0.258
  8 0.248 0.251 0.258 0.296 0.265 0.264 0.275 0.264 0.270 0.258 0.241 0.278
   year
age  1973  1974  1975  1976  1977  1978  1979  1980  1981  1982  1983  1984
  1 0.074 0.074 0.074 0.074 0.074 0.074 0.074 0.074 0.074 0.074 0.074 0.076
  2 0.155 0.155 0.155 0.155 0.155 0.155 0.155 0.155 0.155 0.155 0.155 0.142
  3 0.195 0.195 0.195 0.195 0.195 0.195 0.195 0.195 0.195 0.195 0.195 0.187
  4 0.219 0.219 0.219 0.219 0.219 0.219 0.219 0.219 0.219 0.219 0.219 0.213
  5 0.232 0.232 0.232 0.232 0.232 0.232 0.232 0.232 0.232 0.232 0.232 0.221
  6 0.251 0.251 0.251 0.251 0.251 0.251 0.251 0.251 0.251 0.251 0.251 0.243
  7 0.258 0.258 0.258 0.258 0.258 0.258 0.258 0.258 0.258 0.258 0.258 0.240
  8 0.278 0.278 0.278 0.278 0.278 0.278 0.278 0.278 0.278 0.278 0.278 0.273
   year
age  1985  1986  1987  1988  1989  1990  1991  1992  1993  1994  1995  1996
  1 0.087 0.068 0.058 0.070 0.081 0.096 0.073 0.062 0.089 0.070 0.075 0.067
  2 0.125 0.143 0.130 0.124 0.128 0.140 0.123 0.114 0.127 0.123 0.121 0.116
  3 0.157 0.167 0.160 0.160 0.155 0.166 0.155 0.140 0.157 0.153 0.146 0.148
  4 0.186 0.188 0.175 0.170 0.174 0.175 0.171 0.155 0.171 0.170 0.164 0.162
  5 0.202 0.215 0.194 0.180 0.184 0.187 0.181 0.165 0.182 0.180 0.176 0.177
  6 0.209 0.228 0.210 0.198 0.195 0.195 0.190 0.174 0.191 0.189 0.181 0.199
  7 0.222 0.239 0.218 0.212 0.205 0.207 0.198 0.181 0.198 0.202 0.193 0.200
  8 0.258 0.254 0.229 0.232 0.218 0.218 0.217 0.197 0.212 0.212 0.207 0.214
   year
age  1997  1998  1999  2000  2001  2002  2003  2004  2005  2006  2007  2008
  1 0.064 0.080 0.069 0.064 0.067 0.085 0.081 0.073 0.067 0.064 0.067 0.071
  2 0.118 0.123 0.120 0.120 0.106 0.113 0.116 0.107 0.103 0.105 0.112 0.110
  3 0.146 0.148 0.145 0.148 0.139 0.144 0.136 0.130 0.136 0.131 0.135 0.135
  4 0.165 0.163 0.167 0.168 0.156 0.167 0.160 0.157 0.156 0.149 0.158 0.153
  5 0.176 0.181 0.176 0.188 0.168 0.180 0.167 0.165 0.166 0.164 0.173 0.156
  6 0.188 0.177 0.188 0.204 0.185 0.184 0.172 0.187 0.180 0.177 0.183 0.182
  7 0.204 0.188 0.190 0.200 0.198 0.191 0.186 0.200 0.191 0.184 0.199 0.196
  8 0.216 0.222 0.210 0.213 0.205 0.217 0.199 0.205 0.209 0.211 0.227 0.206
   year
age  2009  2010
  1 0.068 0.053
  2 0.107 0.106
  3 0.133 0.131
  4 0.155 0.145
  5 0.165 0.153
  6 0.182 0.164
  7 0.194 0.175
  8 0.212 0.172


TABLE 7.6.3 Irish Sea herring VIIa(N). WEIGHTS AT AGE IN THE STOCK

Units  :  Kg 
   year
age  1961  1962  1963  1964  1965  1966  1967  1968  1969  1970  1971  1972
  1 0.082 0.067 0.067 0.078 0.065 0.092 0.093 0.091 0.074 0.101 0.108 0.074
  2 0.123 0.125 0.131 0.129 0.132 0.140 0.149 0.153 0.152 0.162 0.158 0.155
  3 0.178 0.152 0.184 0.156 0.176 0.185 0.180 0.196 0.204 0.206 0.189 0.195
  4 0.198 0.177 0.208 0.171 0.192 0.218 0.199 0.231 0.231 0.225 0.214 0.219
  5 0.232 0.199 0.228 0.226 0.210 0.258 0.223 0.246 0.254 0.245 0.225 0.232
  6 0.226 0.214 0.234 0.240 0.230 0.253 0.243 0.269 0.266 0.251 0.266 0.251
  7 0.253 0.275 0.266 0.000 0.272 0.225 0.227 0.234 0.239 0.269 0.241 0.258
  8 0.248 0.251 0.258 0.296 0.265 0.264 0.275 0.264 0.270 0.258 0.241 0.278
   year
age  1973  1974  1975  1976  1977  1978  1979  1980  1981  1982  1983  1984
  1 0.074 0.074 0.074 0.074 0.074 0.074 0.074 0.074 0.074 0.074 0.074 0.076
  2 0.155 0.155 0.155 0.155 0.155 0.155 0.155 0.155 0.155 0.155 0.155 0.142
  3 0.195 0.195 0.195 0.195 0.195 0.195 0.195 0.195 0.195 0.195 0.195 0.187
  4 0.219 0.219 0.219 0.219 0.219 0.219 0.219 0.219 0.219 0.219 0.219 0.213
  5 0.232 0.232 0.232 0.232 0.232 0.232 0.232 0.232 0.232 0.232 0.232 0.221
  6 0.251 0.251 0.251 0.251 0.251 0.251 0.251 0.251 0.251 0.251 0.251 0.243
  7 0.258 0.258 0.258 0.258 0.258 0.258 0.258 0.258 0.258 0.258 0.258 0.240
  8 0.278 0.278 0.278 0.278 0.278 0.278 0.278 0.278 0.278 0.278 0.278 0.273
   year
age  1985  1986  1987  1988  1989  1990  1991  1992  1993  1994  1995  1996
  1 0.087 0.068 0.058 0.070 0.081 0.077 0.070 0.061 0.088 0.073 0.072 0.067
  2 0.125 0.143 0.130 0.124 0.128 0.135 0.121 0.111 0.126 0.126 0.120 0.115
  3 0.157 0.167 0.160 0.160 0.155 0.163 0.153 0.136 0.157 0.154 0.147 0.148
  4 0.186 0.188 0.175 0.170 0.174 0.175 0.167 0.151 0.171 0.174 0.168 0.162
  5 0.202 0.215 0.194 0.180 0.184 0.188 0.180 0.159 0.183 0.181 0.180 0.177
  6 0.209 0.229 0.210 0.198 0.195 0.196 0.189 0.171 0.191 0.190 0.185 0.195
  7 0.222 0.239 0.218 0.212 0.205 0.207 0.195 0.179 0.198 0.203 0.197 0.199
  8 0.258 0.254 0.229 0.232 0.218 0.217 0.214 0.191 0.214 0.214 0.212 0.212
   year
age  1997  1998  1999  2000  2001  2002  2003  2004  2005  2006  2007  2008
  1 0.063 0.073 0.068 0.063 0.066 0.085 0.081 0.067 0.067 0.064 0.073 0.071
  2 0.119 0.121 0.121 0.120 0.105 0.113 0.116 0.114 0.103 0.105 0.114 0.110
  3 0.148 0.150 0.145 0.149 0.139 0.144 0.136 0.144 0.136 0.131 0.137 0.135
  4 0.167 0.166 0.168 0.171 0.156 0.167 0.160 0.161 0.156 0.149 0.158 0.153
  5 0.178 0.179 0.178 0.188 0.167 0.180 0.167 0.170 0.166 0.164 0.174 0.156
  6 0.189 0.190 0.189 0.204 0.183 0.184 0.172 0.192 0.180 0.177 0.183 0.182
  7 0.206 0.200 0.199 0.205 0.199 0.191 0.186 0.202 0.191 0.184 0.199 0.196
  8 0.214 0.230 0.214 0.215 0.205 0.217 0.199 0.214 0.209 0.211 0.227 0.206
   year
age  2009  2010
  1 0.068 0.060
  2 0.109 0.118
  3 0.137 0.134
  4 0.155 0.147
  5 0.166 0.153
  6 0.183 0.165
  7 0.194 0.176
  8 0.213 0.173


TABLE 7.6.4 Irish Sea herring VIIa(N). NATURAL MORTALITY

Units  :  NA 
   year
age 1961 1962 1963 1964 1965 1966 1967 1968 1969 1970 1971 1972 1973 1974 1975
  1  1.0  1.0  1.0  1.0  1.0  1.0  1.0  1.0  1.0  1.0  1.0  1.0  1.0  1.0  1.0
  2  0.3  0.3  0.3  0.3  0.3  0.3  0.3  0.3  0.3  0.3  0.3  0.3  0.3  0.3  0.3
  3  0.2  0.2  0.2  0.2  0.2  0.2  0.2  0.2  0.2  0.2  0.2  0.2  0.2  0.2  0.2
  4  0.1  0.1  0.1  0.1  0.1  0.1  0.1  0.1  0.1  0.1  0.1  0.1  0.1  0.1  0.1
  5  0.1  0.1  0.1  0.1  0.1  0.1  0.1  0.1  0.1  0.1  0.1  0.1  0.1  0.1  0.1
  6  0.1  0.1  0.1  0.1  0.1  0.1  0.1  0.1  0.1  0.1  0.1  0.1  0.1  0.1  0.1
  7  0.1  0.1  0.1  0.1  0.1  0.1  0.1  0.1  0.1  0.1  0.1  0.1  0.1  0.1  0.1
  8  0.1  0.1  0.1  0.1  0.1  0.1  0.1  0.1  0.1  0.1  0.1  0.1  0.1  0.1  0.1
   year
age 1976 1977 1978 1979 1980 1981 1982 1983 1984 1985 1986 1987 1988 1989 1990
  1  1.0  1.0  1.0  1.0  1.0  1.0  1.0  1.0  1.0  1.0  1.0  1.0  1.0  1.0  1.0
  2  0.3  0.3  0.3  0.3  0.3  0.3  0.3  0.3  0.3  0.3  0.3  0.3  0.3  0.3  0.3
  3  0.2  0.2  0.2  0.2  0.2  0.2  0.2  0.2  0.2  0.2  0.2  0.2  0.2  0.2  0.2
  4  0.1  0.1  0.1  0.1  0.1  0.1  0.1  0.1  0.1  0.1  0.1  0.1  0.1  0.1  0.1
  5  0.1  0.1  0.1  0.1  0.1  0.1  0.1  0.1  0.1  0.1  0.1  0.1  0.1  0.1  0.1
  6  0.1  0.1  0.1  0.1  0.1  0.1  0.1  0.1  0.1  0.1  0.1  0.1  0.1  0.1  0.1
  7  0.1  0.1  0.1  0.1  0.1  0.1  0.1  0.1  0.1  0.1  0.1  0.1  0.1  0.1  0.1
  8  0.1  0.1  0.1  0.1  0.1  0.1  0.1  0.1  0.1  0.1  0.1  0.1  0.1  0.1  0.1
   year
age 1991 1992 1993 1994 1995 1996 1997 1998 1999 2000 2001 2002 2003 2004 2005
  1  1.0  1.0  1.0  1.0  1.0  1.0  1.0  1.0  1.0  1.0  1.0  1.0  1.0  1.0  1.0
  2  0.3  0.3  0.3  0.3  0.3  0.3  0.3  0.3  0.3  0.3  0.3  0.3  0.3  0.3  0.3
  3  0.2  0.2  0.2  0.2  0.2  0.2  0.2  0.2  0.2  0.2  0.2  0.2  0.2  0.2  0.2
  4  0.1  0.1  0.1  0.1  0.1  0.1  0.1  0.1  0.1  0.1  0.1  0.1  0.1  0.1  0.1
  5  0.1  0.1  0.1  0.1  0.1  0.1  0.1  0.1  0.1  0.1  0.1  0.1  0.1  0.1  0.1
  6  0.1  0.1  0.1  0.1  0.1  0.1  0.1  0.1  0.1  0.1  0.1  0.1  0.1  0.1  0.1
  7  0.1  0.1  0.1  0.1  0.1  0.1  0.1  0.1  0.1  0.1  0.1  0.1  0.1  0.1  0.1
  8  0.1  0.1  0.1  0.1  0.1  0.1  0.1  0.1  0.1  0.1  0.1  0.1  0.1  0.1  0.1
   year
age 2006 2007 2008 2009 2010
  1  1.0  1.0  1.0  1.0  1.0
  2  0.3  0.3  0.3  0.3  0.3
  3  0.2  0.2  0.2  0.2  0.2
  4  0.1  0.1  0.1  0.1  0.1
  5  0.1  0.1  0.1  0.1  0.1
  6  0.1  0.1  0.1  0.1  0.1
  7  0.1  0.1  0.1  0.1  0.1
  8  0.1  0.1  0.1  0.1  0.1


TABLE 7.6.5 Irish Sea herring VIIa(N). PROPORTION MATURE

Units  :  NA 
   year
age 1961 1962 1963 1964 1965 1966 1967 1968 1969 1970 1971 1972 1973 1974 1975
  1 0.00 0.00 0.00 0.00 0.00 0.00 0.02 0.00 0.00 0.02 0.15 0.11 0.12 0.36 0.40
  2 0.22 0.24 0.34 0.53 0.61 0.47 0.37 0.88 0.71 0.92 0.87 0.88 0.77 0.99 0.99
  3 0.63 0.83 0.88 0.81 0.90 0.91 0.75 0.94 0.92 0.94 0.97 0.90 0.89 0.96 1.00
  4 1.00 0.92 0.89 1.00 1.00 1.00 0.83 0.94 0.94 0.96 0.98 1.00 0.97 1.00 0.94
  5 1.00 1.00 1.00 1.00 1.00 1.00 1.00 1.00 1.00 1.00 1.00 1.00 1.00 1.00 1.00
  6 1.00 1.00 1.00 1.00 1.00 1.00 1.00 1.00 1.00 1.00 1.00 1.00 1.00 1.00 1.00
  7 1.00 1.00 1.00 1.00 1.00 1.00 1.00 1.00 1.00 1.00 1.00 1.00 1.00 1.00 1.00
  8 1.00 1.00 1.00 1.00 1.00 1.00 1.00 1.00 1.00 1.00 1.00 1.00 1.00 1.00 1.00
   year
age 1976 1977 1978 1979 1980 1981 1982 1983 1984 1985 1986 1987 1988 1989 1990
  1 0.07 0.03 0.04 0.00 0.20 0.19 0.10 0.02 0.00 0.14 0.31 0.00 0.00 0.07 0.06
  2 0.96 0.92 0.81 0.84 0.88 0.89 0.80 0.73 0.69 0.62 0.73 0.85 0.90 0.63 0.66
  3 0.98 0.96 0.88 0.81 0.95 0.90 0.89 0.88 0.83 0.71 0.66 0.91 0.96 0.93 0.90
  4 1.00 1.00 0.91 0.78 0.95 0.94 0.91 0.90 0.93 0.88 0.81 0.87 0.99 0.95 0.95
  5 1.00 1.00 1.00 1.00 1.00 1.00 1.00 1.00 1.00 1.00 1.00 1.00 1.00 1.00 1.00
  6 1.00 1.00 1.00 1.00 1.00 1.00 1.00 1.00 1.00 1.00 1.00 1.00 1.00 1.00 1.00
  7 1.00 1.00 1.00 1.00 1.00 1.00 1.00 1.00 1.00 1.00 1.00 1.00 1.00 1.00 1.00
  8 1.00 1.00 1.00 1.00 1.00 1.00 1.00 1.00 1.00 1.00 1.00 1.00 1.00 1.00 1.00
   year
age 1991 1992 1993 1994 1995 1996 1997 1998 1999 2000 2001 2002 2003 2004 2005
  1 0.04 0.28 0.00 0.19 0.10 0.02 0.04 0.30 0.02 0.14 0.15 0.02 0.11 0.11 0.20
  2 0.30 0.48 0.46 0.68 0.86 0.60 0.82 0.83 0.84 0.79 0.54 0.92 0.76 1.00 0.97
  3 0.74 0.72 0.99 0.99 0.94 0.96 0.95 0.97 0.95 0.99 0.88 0.95 0.95 0.97 0.99
  4 0.82 0.81 1.00 0.97 0.99 0.83 1.00 0.99 0.97 1.00 0.97 0.98 0.97 1.00 1.00
  5 1.00 1.00 1.00 1.00 1.00 1.00 1.00 1.00 1.00 1.00 1.00 1.00 1.00 1.00 1.00
  6 1.00 1.00 1.00 1.00 1.00 1.00 1.00 1.00 1.00 1.00 1.00 1.00 1.00 1.00 1.00
  7 1.00 1.00 1.00 1.00 1.00 1.00 1.00 1.00 1.00 1.00 1.00 1.00 1.00 1.00 1.00
  8 1.00 1.00 1.00 1.00 1.00 1.00 1.00 1.00 1.00 1.00 1.00 1.00 1.00 1.00 1.00
   year
age 2006 2007 2008 2009 2010
  1 0.19 0.16 0.16 0.13 0.11
  2 0.89 0.94 0.84 0.82 0.92
  3 1.00 0.98 1.00 0.97 1.00
  4 1.00 1.00 1.00 0.98 0.98
  5 1.00 1.00 1.00 1.00 0.97
  6 1.00 1.00 1.00 1.00 1.00
  7 1.00 1.00 1.00 1.00 1.00
  8 1.00 1.00 1.00 1.00 1.00


TABLE 7.6.6 Irish Sea herring VIIa(N). FRACTION OF HARVEST BEFORE SPAWNING

Units  :  NA 
   year
age 1961 1962 1963 1964 1965 1966 1967 1968 1969 1970 1971 1972 1973 1974 1975
  1  0.9  0.9  0.9  0.9  0.9  0.9  0.9  0.9  0.9  0.9  0.9  0.9  0.9  0.9  0.9
  2  0.9  0.9  0.9  0.9  0.9  0.9  0.9  0.9  0.9  0.9  0.9  0.9  0.9  0.9  0.9
  3  0.9  0.9  0.9  0.9  0.9  0.9  0.9  0.9  0.9  0.9  0.9  0.9  0.9  0.9  0.9
  4  0.9  0.9  0.9  0.9  0.9  0.9  0.9  0.9  0.9  0.9  0.9  0.9  0.9  0.9  0.9
  5  0.9  0.9  0.9  0.9  0.9  0.9  0.9  0.9  0.9  0.9  0.9  0.9  0.9  0.9  0.9
  6  0.9  0.9  0.9  0.9  0.9  0.9  0.9  0.9  0.9  0.9  0.9  0.9  0.9  0.9  0.9
  7  0.9  0.9  0.9  0.9  0.9  0.9  0.9  0.9  0.9  0.9  0.9  0.9  0.9  0.9  0.9
  8  0.9  0.9  0.9  0.9  0.9  0.9  0.9  0.9  0.9  0.9  0.9  0.9  0.9  0.9  0.9
   year
age 1976 1977 1978 1979 1980 1981 1982 1983 1984 1985 1986 1987 1988 1989 1990
  1  0.9  0.9  0.9  0.9  0.9  0.9  0.9  0.9  0.9  0.9  0.9  0.9  0.9  0.9  0.9
  2  0.9  0.9  0.9  0.9  0.9  0.9  0.9  0.9  0.9  0.9  0.9  0.9  0.9  0.9  0.9
  3  0.9  0.9  0.9  0.9  0.9  0.9  0.9  0.9  0.9  0.9  0.9  0.9  0.9  0.9  0.9
  4  0.9  0.9  0.9  0.9  0.9  0.9  0.9  0.9  0.9  0.9  0.9  0.9  0.9  0.9  0.9
  5  0.9  0.9  0.9  0.9  0.9  0.9  0.9  0.9  0.9  0.9  0.9  0.9  0.9  0.9  0.9
  6  0.9  0.9  0.9  0.9  0.9  0.9  0.9  0.9  0.9  0.9  0.9  0.9  0.9  0.9  0.9
  7  0.9  0.9  0.9  0.9  0.9  0.9  0.9  0.9  0.9  0.9  0.9  0.9  0.9  0.9  0.9
  8  0.9  0.9  0.9  0.9  0.9  0.9  0.9  0.9  0.9  0.9  0.9  0.9  0.9  0.9  0.9
   year
age 1991 1992 1993 1994 1995 1996 1997 1998 1999 2000 2001 2002 2003 2004 2005
  1  0.9  0.9  0.9  0.9  0.9  0.9  0.9  0.9  0.9  0.9  0.9  0.9  0.9  0.9  0.9
  2  0.9  0.9  0.9  0.9  0.9  0.9  0.9  0.9  0.9  0.9  0.9  0.9  0.9  0.9  0.9
  3  0.9  0.9  0.9  0.9  0.9  0.9  0.9  0.9  0.9  0.9  0.9  0.9  0.9  0.9  0.9
  4  0.9  0.9  0.9  0.9  0.9  0.9  0.9  0.9  0.9  0.9  0.9  0.9  0.9  0.9  0.9
  5  0.9  0.9  0.9  0.9  0.9  0.9  0.9  0.9  0.9  0.9  0.9  0.9  0.9  0.9  0.9
  6  0.9  0.9  0.9  0.9  0.9  0.9  0.9  0.9  0.9  0.9  0.9  0.9  0.9  0.9  0.9
  7  0.9  0.9  0.9  0.9  0.9  0.9  0.9  0.9  0.9  0.9  0.9  0.9  0.9  0.9  0.9
  8  0.9  0.9  0.9  0.9  0.9  0.9  0.9  0.9  0.9  0.9  0.9  0.9  0.9  0.9  0.9
   year
age 2006 2007 2008 2009 2010
  1  0.9  0.9  0.9  0.9  0.9
  2  0.9  0.9  0.9  0.9  0.9
  3  0.9  0.9  0.9  0.9  0.9
  4  0.9  0.9  0.9  0.9  0.9
  5  0.9  0.9  0.9  0.9  0.9
  6  0.9  0.9  0.9  0.9  0.9
  7  0.9  0.9  0.9  0.9  0.9
  8  0.9  0.9  0.9  0.9  0.9


TABLE 7.6.7 Irish Sea herring VIIa(N). FRACTION OF NATURAL MORTALITY BEFORE SPAWNING

Units  :  NA 
   year
age 1961 1962 1963 1964 1965 1966 1967 1968 1969 1970 1971 1972 1973 1974 1975
  1 0.75 0.75 0.75 0.75 0.75 0.75 0.75 0.75 0.75 0.75 0.75 0.75 0.75 0.75 0.75
  2 0.75 0.75 0.75 0.75 0.75 0.75 0.75 0.75 0.75 0.75 0.75 0.75 0.75 0.75 0.75
  3 0.75 0.75 0.75 0.75 0.75 0.75 0.75 0.75 0.75 0.75 0.75 0.75 0.75 0.75 0.75
  4 0.75 0.75 0.75 0.75 0.75 0.75 0.75 0.75 0.75 0.75 0.75 0.75 0.75 0.75 0.75
  5 0.75 0.75 0.75 0.75 0.75 0.75 0.75 0.75 0.75 0.75 0.75 0.75 0.75 0.75 0.75
  6 0.75 0.75 0.75 0.75 0.75 0.75 0.75 0.75 0.75 0.75 0.75 0.75 0.75 0.75 0.75
  7 0.75 0.75 0.75 0.75 0.75 0.75 0.75 0.75 0.75 0.75 0.75 0.75 0.75 0.75 0.75
  8 0.75 0.75 0.75 0.75 0.75 0.75 0.75 0.75 0.75 0.75 0.75 0.75 0.75 0.75 0.75
   year
age 1976 1977 1978 1979 1980 1981 1982 1983 1984 1985 1986 1987 1988 1989 1990
  1 0.75 0.75 0.75 0.75 0.75 0.75 0.75 0.75 0.75 0.75 0.75 0.75 0.75 0.75 0.75
  2 0.75 0.75 0.75 0.75 0.75 0.75 0.75 0.75 0.75 0.75 0.75 0.75 0.75 0.75 0.75
  3 0.75 0.75 0.75 0.75 0.75 0.75 0.75 0.75 0.75 0.75 0.75 0.75 0.75 0.75 0.75
  4 0.75 0.75 0.75 0.75 0.75 0.75 0.75 0.75 0.75 0.75 0.75 0.75 0.75 0.75 0.75
  5 0.75 0.75 0.75 0.75 0.75 0.75 0.75 0.75 0.75 0.75 0.75 0.75 0.75 0.75 0.75
  6 0.75 0.75 0.75 0.75 0.75 0.75 0.75 0.75 0.75 0.75 0.75 0.75 0.75 0.75 0.75
  7 0.75 0.75 0.75 0.75 0.75 0.75 0.75 0.75 0.75 0.75 0.75 0.75 0.75 0.75 0.75
  8 0.75 0.75 0.75 0.75 0.75 0.75 0.75 0.75 0.75 0.75 0.75 0.75 0.75 0.75 0.75
   year
age 1991 1992 1993 1994 1995 1996 1997 1998 1999 2000 2001 2002 2003 2004 2005
  1 0.75 0.75 0.75 0.75 0.75 0.75 0.75 0.75 0.75 0.75 0.75 0.75 0.75 0.75 0.75
  2 0.75 0.75 0.75 0.75 0.75 0.75 0.75 0.75 0.75 0.75 0.75 0.75 0.75 0.75 0.75
  3 0.75 0.75 0.75 0.75 0.75 0.75 0.75 0.75 0.75 0.75 0.75 0.75 0.75 0.75 0.75
  4 0.75 0.75 0.75 0.75 0.75 0.75 0.75 0.75 0.75 0.75 0.75 0.75 0.75 0.75 0.75
  5 0.75 0.75 0.75 0.75 0.75 0.75 0.75 0.75 0.75 0.75 0.75 0.75 0.75 0.75 0.75
  6 0.75 0.75 0.75 0.75 0.75 0.75 0.75 0.75 0.75 0.75 0.75 0.75 0.75 0.75 0.75
  7 0.75 0.75 0.75 0.75 0.75 0.75 0.75 0.75 0.75 0.75 0.75 0.75 0.75 0.75 0.75
  8 0.75 0.75 0.75 0.75 0.75 0.75 0.75 0.75 0.75 0.75 0.75 0.75 0.75 0.75 0.75
   year
age 2006 2007 2008 2009 2010
  1 0.75 0.75 0.75 0.75 0.75
  2 0.75 0.75 0.75 0.75 0.75
  3 0.75 0.75 0.75 0.75 0.75
  4 0.75 0.75 0.75 0.75 0.75
  5 0.75 0.75 0.75 0.75 0.75
  6 0.75 0.75 0.75 0.75 0.75
  7 0.75 0.75 0.75 0.75 0.75
  8 0.75 0.75 0.75 0.75 0.75


TABLE 7.6.8 Irish Sea herring VIIa(N). SURVEY INDICES

NINEL - Configuration

"FLT04:" "Combined" "larvae" "(Catch:" "Unknown)" "(Effort:" "Unknown)"
      min       max plusgroup   minyear   maxyear    startf      endf 
       NA        NA        NA      1989      2010        NA        NA 
Index type : biomass

NINEL - Index Values

Units  :  NA 
     year
age   1989 1990 1991 1992 1993 1994 1995 1996 1997 1998 1999 2000 2001 2002
  all  -11  -11  -11  -11 38.3 71.2 15.1  4.7 29.1  5.8 16.7 35.5 55.3 31.5
     year
age   2003 2004 2005 2006 2007 2008 2009 2010
  all 15.8 22.7 26.4 43.8 12.6 16.8 16.9 20.4

NINEL - Index Variance (Inverse Weights) 

Units  :  NA 
     year
age   1989 1990 1991 1992 1993 1994 1995 1996 1997 1998 1999 2000 2001 2002
  all    1    1    1    1    1    1    1    1    1    1    1    1    1    1
     year
age   2003 2004 2005 2006 2007 2008 2009 2010
  all    1    1    1    1    1    1    1    1

FLT01: Northern Ireland acoustic surveys (age disaggregated) (Catch: Thousands) (Effort: Unknown) - Configuration

"Irish Sea herring (Division VIIa) (run name: ICAMDC20) . Imported from VPA file."
      min       max plusgroup   minyear   maxyear    startf      endf 
      1.0       8.0       8.0    1994.0    2010.0       0.7       0.8 
Index type : number

FLT01: Northern Ireland acoustic surveys (age disaggregated) (Catch: Thousands) (Effort: Unknown) - Index Values

Units  :  NA 
   year
age  1994   1995  1996   1997   1998   1999   2000   2001   2002   2003   2004
  1 66830 319116 11340 134146 110438 157756  78524 387559 390982 349216 241014
  2 68290  82256 42372  49977  27312  77722 103439  93402  71935 220014 115529
  3 73529  11935 67473  14812   8083  34017 105291  10194  31701  31984  29593
  4 11860  29246  8954  10985   9266   5108  27543  17489  24804   4735  15398
  5  9299   4574 26469   1751   6479  10260   8072   7704  31277   3921   2067
  6  7550   3500  4171   4553   1778  13521   5432   1372  14830   4089   2299
  7  3867   4887  5911    571   2254   1586   4899    626   2756    977    238
  8 10118   6894  5815   1910    780   6289   2359   2263   4461    906    240
   year
age   2005   2006    2007   2008   2009   2010
  1  94330 374731 1316673 475675 371230 580602
  2 109938  96623  251276 452364 182643 561245
  3  97111  15625   46570 114210 177813 117699
  4  17023   9982   21101  39076  92741 120777
  5   8029    530   20818  26370  32490  34325
  6    810    369    1200  17063  15071  16759
  7    607    478     718   4254  13940   4336
  8   5804    469     556    599   6871   6453

FLT01: Northern Ireland acoustic surveys (age disaggregated) (Catch: Thousands) (Effort: Unknown) - Index Variance (Inverse Weights) 

Units  :  NA 
   year
age 1994 1995 1996 1997 1998 1999 2000 2001 2002 2003 2004 2005 2006 2007 2008
  1   80   80   80   80   80   80   80   80   80   80   80   80   80   80   80
  2    8    8    8    8    8    8    8    8    8    8    8    8    8    8    8
  3    8    8    8    8    8    8    8    8    8    8    8    8    8    8    8
  4    8    8    8    8    8    8    8    8    8    8    8    8    8    8    8
  5    8    8    8    8    8    8    8    8    8    8    8    8    8    8    8
  6    8    8    8    8    8    8    8    8    8    8    8    8    8    8    8
  7    8    8    8    8    8    8    8    8    8    8    8    8    8    8    8
  8    8    8    8    8    8    8    8    8    8    8    8    8    8    8    8
   year
age 2009 2010
  1   80   80
  2    8    8
  3    8    8
  4    8    8
  5    8    8
  6    8    8
  7    8    8
  8    8    8


TABLE 7.6.9 Irish Sea herring VIIa(N). STOCK OBJECT CONFIGURATION

      min       max plusgroup   minyear   maxyear   minfbar   maxfbar 
        1         8         8      1961      2010         2         6 


TABLE 7.6.10 Irish Sea herring VIIa(N). FLICA CONFIGURATION SETTINGS

sep.2       : NA
sep.gradual : TRUE
sr          : FALSE
sr.age      : 1
lambda.age  : 0.1 1 1 1 1 1 1 0
lambda.yr   : 1 1 1 1 0.01 1
lambda.sr   : 0.01
index.model : linear linear
index.cor   : -92559631349317830736220086604086468264682600488620284042662244 0
sep.nyr     : 6
sep.age     : 4
sep.sel     : 1


TABLE 7.6.11 Irish Sea herring VIIa(N). FLR, R SOFTWARE VERSIONS

R version 2.8.1 (2008-12-22)

Package  : FLICA
Version  : 1.4-12
Packaged : 2009-10-08 15:16:26 UTC; mpa
Built    : R 2.9.1; ; 2009-10-08 15:16:27 UTC; windows

Package  : FLAssess
Version  : 1.99-102
Packaged : Mon Mar 23 08:18:19 2009; mpa
Built    : R 2.8.0; i386-pc-mingw32; 2009-03-23 08:18:21; windows

Package  : FLCore
Version  : 2.2
Packaged : Tue May 19 19:23:18 2009; Administrator
Built    : R 2.8.1; i386-pc-mingw32; 2009-05-19 19:23:22; windows


TABLE 7.6.12 Irish Sea herring VIIa(N). STOCK SUMMARY

Year Recruitment    TSB   SSB       Fbar Landings Landings
           Age 1              (Ages 2-6)               SOP
                                       f   Tonnes         
1961       67559  19666  5700     0.4676     5710   1.0002
1962       53462  12826  3381     0.5958     4343   0.9995
1963      130271  16298  2658     0.7282     3947   0.9992
1964      228981  26303  2723     0.6170     3593   1.0004
1965      124567  23921  5597     0.8122     5923   1.0021
1966      373283  50237  6498     0.4322     5666   1.0003
1967      360259  62713  9309     0.3522     8721   1.0023
1968      568489  91479 23956     0.2602     8660   0.9995
1969      379074  89071 32546     0.3004    14141   1.0004
1970      484293 115554 38070     0.4662    20622   0.9997
1971      499310 119945 36238     0.4886    26807   0.9994
1972      414813  94433 34732     0.5152    27350   0.8928
1973      667927 107649 32179     0.4546    22600   0.9927
1974      349430  93126 29413     0.8638    38640   1.0043
1975      369357  69354 21600     0.8106    24500   0.9747
1976      263290  54733 13659     0.9378    21250   1.0073
1977      324831  49535  9320     0.9164    15410   1.0484
1978      248671  43581 10156     0.7896    11080   1.0819
1979      139184  35321  8605     0.8196    12338   1.0757
1980      157428  29042  6319     0.9928    10613   1.0308
1981      223863  30690  8784     0.4652     4377   1.0999
1982      231879  38273 12513     0.3060     4855   1.0166
1983      232651  44616 16593     0.1756     3933   1.0165
1984      131707  43365 20939     0.1546     4066   1.0392
1985      148802  42403 15734     0.3818     9187   0.9802
1986      171166  39486 17011     0.3278     7440   1.0238
1987      275725  41549 16420     0.2650     5823   0.9632
1988      113260  37746 16514     0.5118    10172   0.9505
1989      149490  34638 14078     0.2814     4949   0.9966
1990      117269  31424 12680     0.3686     6312   0.9872
1991       69165  23355  9428     0.2886     4398   0.9994
1992      199305  25868  8210     0.4180     5270   0.9890
1993       64051  23707  9076     0.3132     4409   0.9869
1994      198166  29368  9753     0.4008     4828   0.9757
1995      128604  26484 10252     0.3450     5076   1.0007
1996      114486  23701  8427     0.3648     5301   0.9999
1997      121751  21931  6923     0.5772     6651   0.9996
1998      185521  25052  7255     0.6468     4905   0.9951
1999       62299  17960  7224     0.4956     4127   1.0001
2000       66186  15287  7827     0.2112     2002   0.9993
2001       69291  14826  4149     0.7422     5461   1.0004
2002       64754  12778  4168     0.4324     2393   0.9984
2003      144070  18580  4036     0.5812     2399   1.0010
2004      126908  18382  6549     0.4016     2531   0.9979
2005      143446  20484  6270     0.5478     4387   1.0062
2006      174895  21708  5775     0.6130     4402   1.0005
2007      205506  26935  8607     0.2774     4629   1.0012
2008      129694  25011  9351     0.3836     4895   1.0008
2009      204089  28788 11227     0.1624     4594   2.2069
2010      202813  31404 13143     0.2562     4894   0.9989


TABLE 7.6.13 Irish Sea herring VIIa(N). ESTIMATED FISHING MORTALITY

Units  :  f 
   year
age  1961  1962  1963  1964  1965  1966  1967  1968  1969  1970  1971  1972
  1 0.111 0.011 0.060 0.010 0.011 0.004 0.020 0.003 0.006 0.018 0.039 0.166
  2 0.510 0.981 0.801 0.611 0.465 0.478 0.420 0.310 0.269 0.299 0.574 0.361
  3 0.309 0.794 0.535 1.295 0.677 0.580 0.349 0.251 0.305 0.375 0.612 0.517
  4 0.723 0.343 0.816 0.289 1.230 0.325 0.319 0.439 0.376 0.518 0.621 0.524
  5 0.141 0.718 0.827 0.298 0.459 0.389 0.338 0.076 0.220 0.693 0.263 0.589
  6 0.655 0.143 0.662 0.592 1.230 0.389 0.335 0.225 0.332 0.446 0.373 0.585
  7 0.435 0.525 0.662 0.289 0.757 0.389 0.319 0.439 0.275 0.424 0.446 0.469
  8 0.435 0.525 0.662 0.289 0.757 0.389 0.319 0.439 0.275 0.424 0.446 0.469
   year
age  1973  1974  1975  1976  1977  1978  1979  1980  1981  1982  1983  1984
  1 0.104 0.214 0.152 0.229 0.157 0.103 0.142 0.060 0.036 0.035 0.009 0.014
  2 0.343 0.824 0.751 0.790 0.855 0.533 0.749 1.061 0.403 0.264 0.187 0.122
  3 0.612 1.008 0.905 0.972 0.988 0.918 0.858 1.306 0.368 0.262 0.147 0.171
  4 0.412 0.998 0.815 1.094 0.983 0.895 0.818 0.861 0.607 0.429 0.191 0.135
  5 0.510 0.736 0.936 0.887 1.055 0.650 0.734 1.052 0.525 0.116 0.131 0.203
  6 0.396 0.753 0.646 0.946 0.701 0.952 0.939 0.684 0.423 0.459 0.222 0.142
  7 0.411 0.786 0.733 0.856 0.830 0.724 0.746 0.893 0.425 0.284 0.161 0.139
  8 0.411 0.786 0.733 0.856 0.830 0.724 0.746 0.893 0.425 0.284 0.161 0.139
   year
age  1985  1986  1987  1988  1989  1990  1991  1992  1993  1994  1995  1996
  1 0.026 0.042 0.013 0.037 0.012 0.032 0.047 0.100 0.016 0.016 0.040 0.076
  2 0.277 0.398 0.284 0.280 0.202 0.317 0.312 0.393 0.293 0.424 0.416 0.580
  3 0.418 0.364 0.293 0.568 0.269 0.299 0.291 0.395 0.317 0.452 0.402 0.364
  4 0.508 0.355 0.231 0.619 0.379 0.342 0.225 0.495 0.292 0.307 0.341 0.220
  5 0.355 0.287 0.262 0.579 0.287 0.493 0.269 0.386 0.367 0.383 0.302 0.367
  6 0.351 0.235 0.255 0.513 0.270 0.392 0.346 0.421 0.297 0.438 0.264 0.293
  7 0.350 0.296 0.239 0.468 0.258 0.334 0.261 0.381 0.283 0.362 0.312 0.325
  8 0.350 0.296 0.239 0.468 0.258 0.334 0.261 0.381 0.283 0.362 0.312 0.325
   year
age  1997  1998  1999  2000  2001  2002  2003  2004  2005  2006  2007  2008
  1 0.131 0.026 0.047 0.030 0.064 0.004 0.008 0.041 0.132 0.148 0.067 0.092
  2 0.966 0.425 0.346 0.219 0.800 0.563 0.258 0.215 0.580 0.649 0.294 0.406
  3 0.577 0.487 0.418 0.205 0.910 0.307 0.451 0.571 0.567 0.635 0.287 0.397
  4 0.487 0.768 0.351 0.237 0.881 0.607 0.829 0.561 0.495 0.554 0.251 0.347
  5 0.485 0.987 0.552 0.182 0.661 0.340 0.574 0.429 0.577 0.645 0.292 0.404
  6 0.371 0.567 0.811 0.213 0.459 0.345 0.794 0.232 0.520 0.582 0.263 0.364
  7 0.517 0.589 0.452 0.193 0.673 0.395 0.539 0.367 0.495 0.554 0.251 0.347
  8 0.517 0.589 0.452 0.193 0.673 0.395 0.539 0.367 0.495 0.554 0.251 0.347
   year
age  2009  2010
  1 0.039 0.062
  2 0.172 0.271
  3 0.168 0.265
  4 0.147 0.232
  5 0.171 0.270
  6 0.154 0.243
  7 0.147 0.232
  8 0.147 0.232


TABLE 7.6.14 Irish Sea herring VIIa(N). ESTIMATED POPULATION ABUNDANCE

Units  :  NA 
   year
age  1961  1962   1963   1964   1965   1966   1967   1968   1969   1970   1971
  1 67559 53462 130271 228981 124567 373283 360259 568489 379074 484293 499310
  2 32807 22235  19446  45123  83361  45334 136776 129952 208542 138685 174904
  3 10871 14591   6178   6468  18144  38803  20832  66600  70590 118037  76204
  4 25222  6538   5402   2962   1451   7548  17780  12028  42420  42598  66450
  5  1913 11076   4199   2161   2006    384   4934  11695   7019  26363  22956
  6  1040  1504   4887   1662   1451   1148    235   3183   9806   5098  11932
  7  3550   489   1179   2282    832    384    704    152   2300   6368   2953
  8  6390  1708   1348    738   1387    942    813    998    671   3184   2953
   year
age   1972   1973   1974   1975   1976   1977   1978   1979   1980   1981
  1 414813 667927 349430 369357 263290 324831 248671 139184 157428 223863
  2 176627 129268 221394 103812 116721  77015 102101  82513  44432  54532
  3  72997  91195  67928  71955  36298  39238  24272  44370  28910  11390
  4  33829  35627  40469  20293  23835  11242  11957   7939  15404   6412
  5  32310  18132  21349  13502   8124   7223   3806   4419   3169   5894
  6  15961  16225   9854   9252   4791   3027   2275   1798   1919   1001
  7   7432   8045   9876   4201   4390   1684   1359    794    636    876
  8   4666   8077   3126   3296   2304   2073    710    576    406    725
   year
age   1982   1983   1984   1985   1986   1987   1988   1989   1990  1991   1992
  1 231879 232651 131707 148802 171166 275725 113260 149490 117269 69165 199305
  2  79424  82344  84828  47773  53331  60364 100140  40154  54322 41798  24285
  3  26994  45184  50621  55641  26833  26546  33666  56090  24299 29323  22666
  4   6452  17001  31949  34927  30003  15269  16209  15623  35096 14747  17946
  5   3162   3801  12706  25260  19022  19042  10971   7895   9674 22562  10655
  6   3156   2548   3017   9389  16025  12917  13264   5564   5364  5346  15607
  7    593   1804   1846   2369   5982  11465   9053   7188   3844  3279   3422
  8   1610    417   3862   2571   3583   8229  11801   9019   5958  3717   1295
   year
age  1993   1994   1995   1996   1997   1998  1999  2000  2001  2002   2003
  1 64051 198166 128604 114486 121751 185521 62299 66186 69291 64754 144070
  2 66310  23187  71756  45452  39032  39290 66467 21869 23640 23920  23718
  3 12145  36664  11236  35056  18855  11004 19028 34848 13009  7866  10092
  4 12505   7240  19111   6157  19937   8671  5537 10253 23244  4287   4738
  5  9903   8453   4819  12297   4470  11088  3641  3525  7318  8713   2113
  6  6555   6209   5217   3224   7711   2490  3738  1897  2660  3420   5613
  7  9269   4408   3625   3625   2177   4815  1279  1504  1387  1520   2191
  8  3604   6868   5684   5146   3711   1060  1791   881  1713  1081   1520
   year
age   2004   2005   2006   2007   2008   2009   2010
  1 126908 143446 174895 205506 129694 204089 202813
  2  52597  44816  46250  55508  70718  43501  72196
  3  13571  31431  18590  17900  30658  34899  27128
  4   5263   6275  14594   8066  10997  16872  24144
  5   1870   2717   3460   7585   5680   7034  13178
  6   1078   1102   1381   1642   5126   3432   5363
  7   2297    773    593    699   1142   3223   2661
  8    433    986    605    525    772   1650    938


TABLE 7.6.15 Irish Sea herring VIIa(N). SURVIVORS AFTER TERMINAL YEAR

Units  :  NA 
   year
age  2011
  1    NA
  2 70145
  3 40772
  4 17033
  5 17327
  6  9105
  7  3805
  8  2583


TABLE 7.6.16 Irish Sea herring VIIa(N). FITTED SELECTION PATTERN

Units  :  NA 
   year
age  2005  2006  2007  2008  2009  2010
  1 0.266 0.266 0.266 0.266 0.266 0.266
  2 1.171 1.171 1.171 1.171 1.171 1.171
  3 1.145 1.145 1.145 1.145 1.145 1.145
  4 1.000 1.000 1.000 1.000 1.000 1.000
  5 1.164 1.164 1.164 1.164 1.164 1.164
  6 1.049 1.049 1.049 1.049 1.049 1.049
  7 1.000 1.000 1.000 1.000 1.000 1.000
  8 1.000 1.000 1.000 1.000 1.000 1.000


TABLE 7.6.17 Irish Sea herring VIIa(N). PREDICTED CATCH IN NUMBERS

Units  :  NA 
   year
age  1961  1962 1963  1964  1965  1966  1967  1968  1969  1970  1971  1972
  1  4541   381 4837  1508   846   940  4440  1020  1321  5605 12168 40640
  2 11471 12296 9441 18095 27077 15048 40922 30181 42799 31177 66921 46660
  3  2629  7340 2341  4346  8180 15635  5598 13459 16908 33630 31940 26950
  4 12427  1811 2887   710   987  1999  4633  4079 12681 16465 29405 13180
  5   239  5433 2263   532   705   118  1351   816  1321 12611  5070 13750
  6   478   191 2263   710   987   353     0   612  2642  1752  3549  6760
  7  1195   191  546     0   423   118     0     0   528  2102  1014  2660
  8  2151   667  624   177   705     0     0     0     0  1051  1014  1670
   year
age  1973   1974  1975  1976  1977  1978  1979  1980  1981  1982  1983 1984
  1 42150  43250 33330 34740 30280 15540 11770  5840  5050  5100  1305 1168
  2 32740 109550 48240 56160 39040 36950 38270 25760 15790 16030 12162 8424
  3 38240  39750 39410 20780 22690 13410 23490 19510  3200  5670  5598 7237
  4 11490  24510 10840 15220  6750  6780  4250  8520  2790  2150  2820 3841
  5  6920  10650  7870  4580  4520  1740  2200  1980  2300   330   445 2221
  6  5070   4990  4210  2810  1460  1340  1050   910   330  1110   484  380
  7  2590   5150  2090  2420   910   670   400   360   290   140   255  229
  8  2600   1630  1640  1270  1120   350   290   230   240   380    59  479
   year
age  1985  1986  1987  1988  1989  1990 1991  1992  1993  1994  1995  1996
  1  2429  4491  2225  2607  1156  2313 1999 12145   646  1970  3204  5335
  2 10050 15266 12981 21250  6385 12835 9754  6885 14636  7002 21330 17529
  3 17336  7462  6146 13343 12039  5726 6743  6744  3008 12165  3391  9761
  4 13287  8550  2998  7159  4708  9697 2833  6690  3017  1826  5269  1160
  5  7206  4528  4180  4610  1876  3598 5068  3256  2903  2566  1199  3603
  6  2651  3198  2777  5084  1255  1661 1493  5122  1606  2104  1154   780
  7   667  1464  2328  3232  1559  1042  719  1036  2181  1278   926   961
  8   724   877  1671  4213  1956  1615  815   392   848  1991  1452  1364
   year
age  1997  1998  1999 2000  2001 2002 2003 2004  2005  2006  2007  2008 2009
  1  9551  3069  1810 1221  2713  179  694 3225 11326 15361  8437  7290 4971
  2 21387 11879 16929 3743 11473 9021 4694 8833 17285 19390 12291 20604 5971
  3  7562  3875  5936 5873  7151 1894 3345 5405 12447  8003  4069  9170 4916
  4  7341  4450  1566 2065 13050 1866 2559 2161  2342  5938  1706  3077 2198
  5  1641  6674  1477  558  3386 2395  882  623  1138  1574  1832  1802 1055
  6  2281  1030  1989  347   936  953 2945  213   427   583   362  1493  468
  7   840  2049   444  251   650  474  872  673   288   241   148   319  420
  8  1432   451   622  147   803  337  605  127   368   246   111   216  215
   year
age  2010
  1  7713
  2 14925
  3  5757
  4  4762
  5  2972
  6  1104
  7   525
  8   185


TABLE 7.6.18 Irish Sea herring VIIa(N). CATCH RESIDUALS

Units  :  Thousands NA 
   year
age   2005   2006   2007   2008   2009   2010
  1 -0.265 -0.997  0.877  0.204 -0.241  0.218
  2 -0.212 -0.240  0.398 -0.082  1.927  0.166
  3 -0.165  0.024  0.202 -0.203  1.530  0.149
  4  0.339  0.062 -0.030 -0.132  1.437  0.264
  5  0.222 -0.172 -0.545  0.144  1.134  0.074
  6 -0.028  0.038 -0.108  0.165  1.163 -0.177
  7  0.012  0.082 -0.192  0.026  0.753 -0.350
  8  0.000  0.000  0.000  0.000  0.000  0.000


TABLE 7.6.19 Irish Sea herring VIIa(N). PREDICTED INDEX VALUES

NINEL

Units  :  NA NA 
     year
age   1989 1990 1991 1992 1993 1994 1995 1996 1997 1998 1999 2000 2001 2002
  all   NA   NA   NA   NA   27   28   30   25   20   21   21   23   12   12
     year
age   2003 2004 2005 2006 2007 2008 2009 2010
  all   12   19   18   17   25   27   33   38

Northern Ireland Acoustic Surveys

Units  :  NA NA 
   year
age       1994       1995       1996       1997       1998       1999
  1 335464.017 213783.285 185244.138 189050.291 311564.825 103035.819
  2  63004.918 196166.956 109911.684  70647.128 106709.268 191590.245
  3  73372.007  23343.977  74893.020  34348.008  21444.890  39039.550
  4  14817.861  38130.176  13448.296  35658.042  12561.491  10959.670
  5  13791.619   8352.674  20305.325   6754.810  11495.023   5231.364
  6   7973.275   7634.336   4617.347  10414.899   2904.494   3630.116
  7   4399.146   3756.535   3718.286   1933.921   4053.616   1192.964
  8  10792.528   9275.930   8310.903   5191.787   1405.049   2631.777
   year
age       2000       2001       2002       2003       2004        2005
  1 110895.793 113170.958 110564.689 245390.306 210836.032 222587.4432
  2  69299.384  48452.746  58581.501  72999.921 167242.537 108369.3458
  3  83903.136  18456.395  17544.447  20204.488  24822.538  57674.6238
  4  22111.789  30924.594   7004.063   6553.396   8902.770  11150.9178
  5   6687.557   9692.138  14681.101   2987.997   2947.878   3833.5293
  6   2883.481   3361.697   4708.301   5521.576   1614.698   1331.6041
  7   1703.808   1096.001   1479.523   1915.084   2284.029    697.9024
  8   1571.371   2132.199   1656.486   2092.383    678.742   1402.2565
   year
age        2006        2007       2008       2009       2010
  1 268197.8692 334847.1458 207300.671 339496.414 331715.857
  2 106171.2842 166376.2199 194795.292 142816.313 220033.760
  3  32421.2412  40521.7249  63901.341  86359.749  62421.074
  4  24810.7739  17220.4170  21844.213  38930.494  52282.501
  5   4635.5311  13248.3925   9121.551  13449.226  23401.074
  6   1592.9710   2404.4099   6959.725   5452.945   7972.240
  7    512.4089    757.9230   1152.638   3779.297   2928.403
  8    822.4993    896.6708   1227.235   3046.577   1625.391


TABLE 7.6.20 Irish Sea herring VIIa(N). INDEX RESIDUALS

NINEL

Units  :  NA 
     year
age   1989 1990 1991 1992  1993  1994   1995   1996  1997   1998   1999 2000
  all   NA   NA   NA   NA 0.368 0.916 -0.684 -1.655 0.364 -1.295 -0.234 0.44
     year
age    2001  2002  2003  2004  2005  2006   2007   2008   2009   2010
  all 1.518 0.951 0.293 0.169 0.366 0.955 -0.691 -0.486 -0.662 -0.632

Northern Ireland Acoustic Surveys

Units  :  NA 
   year
age         1994       1995       1996       1997       1998       1999
  1 -1.613362617  0.4005919 -2.7933383 -0.3430843 -1.0371531  0.4259729
  2  0.080550556 -0.8691298 -0.9531894 -0.3461346 -1.3627819 -0.9022206
  3  0.002137396 -0.6708638 -0.1043332 -0.8411064 -0.9757233 -0.1377148
  4 -0.222661862 -0.2652632 -0.4067521 -1.1774440 -0.3042841 -0.7634142
  5 -0.394154225 -0.6021937  0.2650911 -1.3500678 -0.5733479  0.6735807
  6 -0.054547808 -0.7798930 -0.1016645 -0.8274511 -0.4907702  1.3149796
  7 -0.128931353  0.2630817  0.4635522 -1.2199157 -0.5869028  0.2847744
  8 -0.064538012 -0.2967714 -0.3571274 -0.9999748 -0.5885338  0.8711428
   year
age       2000        2001      2002       2003       2004        2005
  1 -0.3451867  1.23096852 1.2630608  0.3528406  0.1337743 -0.85852075
  2  0.4005460  0.65632374 0.2053440  1.1032328 -0.3699235  0.01437131
  3  0.2270650 -0.59361163 0.5916108  0.4593310  0.1757858  0.52103737
  4  0.2196375 -0.56997968 1.2645145 -0.3250017  0.5478752  0.42304356
  5  0.1881527 -0.22957541 0.7563220  0.2717434 -0.3549873  0.73927413
  6  0.6333092 -0.89617630 1.1473250 -0.3003628  0.3533264 -0.49710535
  7  1.0561652 -0.56007322 0.6220603 -0.6730302 -2.2614257 -0.13955041
  8  0.4062893  0.05953771 0.9906743 -0.8370196 -1.0396022  1.42046461
   year
age        2006        2007       2008       2009      2010
  1  0.33448341  1.36918923  0.8305646 0.08935843 0.5597867
  2 -0.09423687  0.41230033  0.8425379 0.24597414 0.9363765
  3 -0.72994161  0.13911831  0.5806985 0.72221074 0.6342276
  4 -0.91049452  0.20322472  0.5815724 0.86803280 0.8372841
  5 -2.16862905  0.45194177  1.0615872 0.88201082 0.3830920
  6 -1.46255946 -0.69498294  0.8967723 1.01661646 0.7429699
  7 -0.06951216 -0.05411223  1.3058067 1.30522447 0.3924950
  8 -0.56174490 -0.47792054 -0.7172576 0.81329105 1.3787964


TABLE 7.6.21 Irish Sea herring VIIa(N). FIT PARAMETERS

                              Value Std.dev Lower.95.pct.CL Upper.95.pct.CL
F, 2005                        0.50    0.21            0.33            0.75
F, 2006                        0.55    0.21            0.36            0.84
F, 2007                        0.25    0.23            0.16            0.39
F, 2008                        0.35    0.24            0.22            0.56
F, 2009                        0.15    0.79            0.03            0.69
F, 2010                        0.23    0.26            0.14            0.38
Selectivity at age 1           0.27    0.58            0.09            0.83
Selectivity at age 2           1.17    0.23            0.75            1.83
Selectivity at age 3           1.15    0.23            0.73            1.80
Selectivity at age 5           1.16    0.21            0.77            1.75
Selectivity at age 6           1.05    0.20            0.70            1.56
Terminal year pop, age 1  202812.47    1.21        19053.15      2158850.05
Terminal year pop, age 2   72195.14    0.37        34805.01       149752.57
Terminal year pop, age 3   27126.95    0.35        13585.63        54165.42
Terminal year pop, age 4   24142.84    0.27        14214.88        41004.68
Terminal year pop, age 5   13177.31    0.25         8035.13        21610.28
Terminal year pop, age 6    5362.21    0.25         3281.92         8761.11
Terminal year pop, age 7    2660.33    0.26         1607.60         4402.45
Last true age pop, 2005      771.83    0.38          367.65         1620.37
Last true age pop, 2006      592.17    0.31          324.55         1080.49
Last true age pop, 2007      697.67    0.30          390.17         1247.53
Last true age pop, 2008     1141.01    0.28          661.26         1968.80
Last true age pop, 2009     3222.27    0.30         1784.09         5819.80
Index 1, biomass, Q            0.00    0.10            0.00            0.00
Index 2, age 1 numbers, Q      3.63    0.81            0.74           17.66
Index 2, age 2 numbers, Q      4.68    0.26            2.82            7.77
Index 2, age 3 numbers, Q      3.26    0.26            1.97            5.41
Index 2, age 4 numbers, Q      2.78    0.26            1.67            4.61
Index 2, age 5 numbers, Q      2.34    0.26            1.41            3.90
Index 2, age 6 numbers, Q      1.92    0.26            1.15            3.22
Index 2, age 7 numbers, Q      1.41    0.27            0.84            2.38
Index 2, age 8 numbers, Q      2.22    0.27            1.32            3.74


